# dimensionless [l(l+1)/2pi] C_l's for scalar adiabatic (AD) mode
# for l=2 to 3000, i.e. number of multipoles equal to 2999
#
# -> if you prefer output in CAMB/HealPix/LensPix units/order, set 'format' to 'camb' in input file
# -> if you don't want to see such a header, set 'headers' to 'no' in input file
# -> for CMB lensing (phi), these are C_l^phi-phi for the lensing potential.
#    Remember the conversion factors:
#    C_l^dd (deflection) = l(l+1) C_l^phi-phi
#    C_l^gg (shear/convergence) = 1/4 (l(l+1))^2 C_l^phi-phi
#
# 1:l     2:TT                     3:EE                     4:TE                     5:BB                     6:phiphi                 7:TPhi                   8:Ephi               
    2       1.410651427490e-10       4.194806013906e-15       3.493957175918e-13       0.000000000000e+00       7.987813987073e-09       4.637570404277e-10      -1.844626952371e-12 
    3       1.329236816392e-10       5.381997636102e-15       3.943402651243e-13       0.000000000000e+00       4.922270447258e-09       3.272663092220e-10      -1.396505191659e-12 
    4       1.253892560237e-10       4.657515355785e-15       3.692655444881e-13       0.000000000000e+00       3.416101111158e-09       2.469071268453e-10      -9.135156563867e-13 
    5       1.197850871257e-10       3.108966088109e-15       3.146698492433e-13       0.000000000000e+00       2.543453100850e-09       1.943894200186e-10      -5.069384362739e-13 
    6       1.159079699352e-10       1.739676222673e-15       2.535300590328e-13       0.000000000000e+00       1.982555631598e-09       1.576819516360e-10      -2.070739977804e-13 
    7       1.133774646980e-10       9.416982706346e-16       1.991211852302e-13       0.000000000000e+00       1.596874634804e-09       1.308727285812e-10      -1.538063132705e-14 
    8       1.118981313161e-10       6.102740251045e-16       1.571836832827e-13       0.000000000000e+00       1.317897706963e-09       1.106290060152e-10       8.287701192857e-14 
    9       1.111412183597e-10       4.920618201011e-16       1.290010398220e-13       0.000000000000e+00       1.108362243653e-09       9.491116511147e-11       1.107452185265e-13 
   10       1.109484243166e-10       4.190765924198e-16       1.132197591684e-13       0.000000000000e+00       9.463522706193e-10       8.244961058320e-11       9.387996434052e-14 
   11       1.112028297498e-10       3.490042983456e-16       1.071391827219e-13       0.000000000000e+00       7.986461352041e-10       7.281622078324e-11       5.634893998504e-14 
   12       1.117858353259e-10       2.989790587982e-16       1.077974978969e-13       0.000000000000e+00       6.971219182330e-10       6.432311342585e-11       1.584185976987e-14 
   13       1.126179661411e-10       2.818192786026e-16       1.125858949468e-13       0.000000000000e+00       6.138311936281e-10       5.733320358687e-11      -1.551907259102e-14 
   14       1.136552494845e-10       2.900740188397e-16       1.195000145223e-13       0.000000000000e+00       5.445904114216e-10       5.144431942026e-11      -3.283263649423e-14 
   15       1.148867311295e-10       3.112189110300e-16       1.272022817648e-13       0.000000000000e+00       4.863521556210e-10       4.627420435212e-11      -3.675520362739e-14 
   16       1.162340964958e-10       3.417211459551e-16       1.349992414839e-13       0.000000000000e+00       4.368688914148e-10       4.190608506317e-11      -3.080902922579e-14 
   17       1.177094431242e-10       3.866395593436e-16       1.427704247191e-13       0.000000000000e+00       3.944497032885e-10       3.816133335294e-11      -2.013975796612e-14 
   18       1.192913936846e-10       4.516282835269e-16       1.507141889741e-13       0.000000000000e+00       3.576579902346e-10       3.486507721694e-11      -9.655874137705e-15 
   19       1.209789560729e-10       5.371296052239e-16       1.590539374324e-13       0.000000000000e+00       3.259018169832e-10       3.197250025837e-11      -2.033148469094e-15 
   20       1.227296193287e-10       6.411655905154e-16       1.679677195939e-13       0.000000000000e+00       2.979517892417e-10       2.939914533532e-11       8.767556183270e-16 
   21       1.245558486383e-10       7.629770396629e-16       1.774039686046e-13       0.000000000000e+00       2.733641766260e-10       2.713141389636e-11      -4.778162281945e-16 
   22       1.264555260412e-10       9.019192634127e-16       1.871644106261e-13       0.000000000000e+00       2.515458777556e-10       2.513633738840e-11      -4.462283677701e-15 
   23       1.284243333715e-10       1.058183742575e-15       1.969655226064e-13       0.000000000000e+00       2.321936671804e-10       2.335992901204e-11      -9.359345258235e-15 
   24       1.304373833507e-10       1.232035745727e-15       2.064408987686e-13       0.000000000000e+00       2.148570476067e-10       2.172591221341e-11      -1.329485035763e-14 
   25       1.325010101529e-10       1.423499940101e-15       2.152513006634e-13       0.000000000000e+00       1.993295990688e-10       2.024471605957e-11      -1.537498619015e-14 
   26       1.346152911314e-10       1.632742333243e-15       2.230773593138e-13       0.000000000000e+00       1.853278206630e-10       1.893360909165e-11      -1.518976834021e-14 
   27       1.367771187833e-10       1.861622656230e-15       2.298406160440e-13       0.000000000000e+00       1.726822978879e-10       1.775656580652e-11      -1.335585296901e-14 
   28       1.389731163608e-10       2.112517002566e-15       2.355586711799e-13       0.000000000000e+00       1.611736946855e-10       1.665656467215e-11      -1.089351382163e-14 
   29       1.412090412453e-10       2.386805058002e-15       2.402742680994e-13       0.000000000000e+00       1.507420830080e-10       1.563410066816e-11      -8.420603440951e-15 
   30       1.434844787712e-10       2.685551606045e-15       2.440666166311e-13       0.000000000000e+00       1.412741018724e-10       1.470171297339e-11      -6.536867502784e-15 
   31       1.457886818146e-10       3.009779075987e-15       2.470231738514e-13       0.000000000000e+00       1.325750488321e-10       1.386344567062e-11      -5.802577619399e-15 
   32       1.481253939006e-10       3.360436196066e-15       2.491202111958e-13       0.000000000000e+00       1.245993281733e-10       1.311011764972e-11      -6.089999476136e-15 
   33       1.504947004638e-10       3.738407651124e-15       2.502976863879e-13       0.000000000000e+00       1.172900664681e-10       1.242046117526e-11      -6.978202704022e-15 
   34       1.528903002575e-10       4.144520235731e-15       2.504790035032e-13       0.000000000000e+00       1.105443477753e-10       1.176921551635e-11      -7.985340304275e-15 
   35       1.553170857943e-10       4.579557322519e-15       2.495350450312e-13       0.000000000000e+00       1.043270216193e-10       1.115483295200e-11      -8.831264165141e-15 
   36       1.577780490211e-10       5.044239808018e-15       2.473050475691e-13       0.000000000000e+00       9.858746236295e-11       1.058061724641e-11      -9.258110509985e-15 
   37       1.602715010919e-10       5.539248975227e-15       2.436377267094e-13       0.000000000000e+00       9.325014608269e-11       1.004747270926e-11      -9.047174219022e-15 
   38       1.628003306305e-10       6.065337054464e-15       2.385058395005e-13       0.000000000000e+00       8.830095387023e-11       9.555084165910e-12      -8.325191345116e-15 
   39       1.653646240632e-10       6.623246846916e-15       2.319296827863e-13       0.000000000000e+00       8.372396851499e-11       9.100654524864e-12      -7.362190447937e-15 
   40       1.679584003015e-10       7.213678564579e-15       2.239478392977e-13       0.000000000000e+00       7.947524229100e-11       8.678246320592e-12      -6.495072557434e-15 
   41       1.705731114292e-10       7.837295863020e-15       2.146013261296e-13       0.000000000000e+00       7.549803793257e-11       8.280745299493e-12      -6.041063812478e-15 
   42       1.732109937360e-10       8.494753002535e-15       2.038771779873e-13       0.000000000000e+00       7.178039138873e-11       7.907163268417e-12      -5.993768551196e-15 
   43       1.758750277666e-10       9.186671837070e-15       1.917483580737e-13       0.000000000000e+00       6.831217577645e-11       7.557262140348e-12      -6.235467101303e-15 
   44       1.785648717576e-10       9.913631615696e-15       1.781890696519e-13       0.000000000000e+00       6.506782985266e-11       7.229415783637e-12      -6.617579442024e-15 
   45       1.812785283442e-10       1.067616308662e-14       1.631709203744e-13       0.000000000000e+00       6.201542829229e-11       6.921277726064e-12      -6.992496750517e-15 
   46       1.840187221448e-10       1.147473387311e-14       1.466501999093e-13       0.000000000000e+00       5.915001767818e-11       6.632291439510e-12      -7.324946431999e-15 
   47       1.867878634166e-10       1.230975499657e-14       1.285766890480e-13       0.000000000000e+00       5.646815939805e-11       6.361736258906e-12      -7.610656457413e-15 
   48       1.895860028682e-10       1.318158185778e-14       1.088968262314e-13       0.000000000000e+00       5.395787997453e-11       6.107943241613e-12      -7.845519222334e-15 
   49       1.924106144006e-10       1.409051183138e-14       8.755342583079e-14       0.000000000000e+00       5.159803704901e-11       5.868225990404e-12      -8.025616224399e-15 
   50       1.952582627337e-10       1.503678722915e-14       6.449373726530e-14       0.000000000000e+00       4.936466113823e-11       5.639690376758e-12      -8.151089468045e-15 
   51       1.981306439640e-10       1.602061071885e-14       3.969685485951e-14       0.000000000000e+00       4.725348118415e-11       5.422083312882e-12      -8.238937276585e-15 
   52       2.010298091029e-10       1.704212993261e-14       1.315326111322e-14       0.000000000000e+00       4.526241737402e-11       5.215597669929e-12      -8.313734415131e-15 
   53       2.039562969900e-10       1.810143036222e-14      -1.514275570260e-14       0.000000000000e+00       4.338484127119e-11       5.020033804707e-12      -8.404289750248e-15 
   54       2.069090057345e-10       1.919853320634e-14      -4.519299075493e-14       0.000000000000e+00       4.160927007056e-11       4.834771742666e-12      -8.543851949845e-15 
   55       2.098863343044e-10       2.033342849088e-14      -7.699804662972e-14       0.000000000000e+00       3.992285032196e-11       4.659007542045e-12      -8.760194385487e-15 
   56       2.128902339051e-10       2.150618899735e-14      -1.105665515176e-13       0.000000000000e+00       3.832352298022e-11       4.492594873013e-12      -9.042514207501e-15 
   57       2.159229378705e-10       2.271688086590e-14      -1.459080369646e-13       0.000000000000e+00       3.681034487911e-11       4.335363781181e-12      -9.366670589030e-15 
   58       2.189857023443e-10       2.396553004014e-14      -1.830303033974e-13       0.000000000000e+00       3.537980937592e-11       4.186857680755e-12      -9.704400564561e-15 
   59       2.220787272076e-10       2.525212148860e-14      -2.219394197786e-13       0.000000000000e+00       3.402568824860e-11       4.046315830309e-12      -1.002313041303e-14 
   60       2.252010770075e-10       2.657659842613e-14      -2.626397232612e-13       0.000000000000e+00       3.273887359272e-11       3.912655808540e-12      -1.028578704093e-14 
   61       2.283514877621e-10       2.793879065697e-14      -3.051321378175e-13       0.000000000000e+00       3.150989637497e-11       3.784765407219e-12      -1.045946075145e-14 
   62       2.315311778821e-10       2.933818256970e-14      -3.494086898910e-13       0.000000000000e+00       3.033750037334e-11       3.662494517076e-12      -1.054409246078e-14 
   63       2.347415307473e-10       3.077409144769e-14      -3.954567555090e-13       0.000000000000e+00       2.922172095173e-11       3.545855797508e-12      -1.054992023586e-14 
   64       2.379832145511e-10       3.224573078477e-14      -4.432605800608e-13       0.000000000000e+00       2.816130650091e-11       3.434727351520e-12      -1.048928651558e-14 
   65       2.412561313365e-10       3.375220725778e-14      -4.928012246150e-13       0.000000000000e+00       2.715364526386e-11       3.328845019059e-12      -1.037673034170e-14 
   66       2.445593660324e-10       3.529251769906e-14      -5.440565122363e-13       0.000000000000e+00       2.619469216105e-11       3.227794670356e-12      -1.022907958972e-14 
   67       2.478911354898e-10       3.686554606902e-14      -5.970009743030e-13       0.000000000000e+00       2.527889561584e-11       3.131004499267e-12      -1.006554319976e-14 
   68       2.512496344224e-10       3.847018191913e-14      -6.516084339390e-13       0.000000000000e+00       2.440067414414e-11       3.037901541151e-12      -9.903909517493e-15 
   69       2.546358861899e-10       4.010571042186e-14      -7.078604841767e-13       0.000000000000e+00       2.355935712352e-11       2.948435280924e-12      -9.748040645600e-15 
   70       2.580513807594e-10       4.177149629552e-14      -7.657396391478e-13       0.000000000000e+00       2.275511829969e-11       2.862646784679e-12      -9.597998163609e-15 
   71       2.614972013877e-10       4.346686938460e-14      -8.252268624823e-13       0.000000000000e+00       2.198748166417e-11       2.780510418860e-12      -9.453705587845e-15 
   72       2.649739965973e-10       4.519112473954e-14      -8.863015810718e-13       0.000000000000e+00       2.125528791550e-11       2.701930343718e-12      -9.314941014337e-15 
   73       2.684819521504e-10       4.694352269635e-14      -9.489416988310e-13       0.000000000000e+00       2.055666092050e-11       2.626737006765e-12      -9.181329761736e-15 
   74       2.720207630249e-10       4.872328895640e-14      -1.013123610460e-12       0.000000000000e+00       1.988897417552e-11       2.554683636229e-12      -9.052337014224e-15 
   75       2.755896053886e-10       5.052961466605e-14      -1.078822215210e-12       0.000000000000e+00       1.924881726768e-11       2.485442734513e-12      -8.927260464423e-15 
   76       2.791876308770e-10       5.236159683684e-14      -1.146009894494e-12       0.000000000000e+00       1.863283908081e-11       2.418689282546e-12      -8.805403095482e-15 
   77       2.828156154330e-10       5.421804688664e-14      -1.214653199091e-12       0.000000000000e+00       1.804052906850e-11       2.354375620862e-12      -8.686644165532e-15 
   78       2.864745616225e-10       5.609764716764e-14      -1.284715580034e-12       0.000000000000e+00       1.747188458285e-11       2.292500556616e-12      -8.570959462404e-15 
   79       2.901651859709e-10       5.799900640344e-14      -1.356158363804e-12       0.000000000000e+00       1.692656381489e-11       2.233025399045e-12      -8.458246797587e-15 
   80       2.938879016486e-10       5.992065854537e-14      -1.428940744842e-12       0.000000000000e+00       1.640387023417e-11       2.175872230998e-12      -8.348322343037e-15 
   81       2.976428011563e-10       6.186106162886e-14      -1.503019778065e-12       0.000000000000e+00       1.590273702838e-11       2.120922180469e-12      -8.240916967987e-15 
   82       3.014296390098e-10       6.381859662976e-14      -1.578350371383e-12       0.000000000000e+00       1.542171154299e-11       2.068013692133e-12      -8.135672575760e-15 
   83       3.052478144258e-10       6.579156632068e-14      -1.654885278214e-12       0.000000000000e+00       1.495893972077e-11       2.016940798875e-12      -8.032138440580e-15 
   84       3.090966790617e-10       6.777826135922e-14      -1.732575960765e-12       0.000000000000e+00       1.451261473558e-11       1.967505212757e-12      -7.929986485958e-15 
   85       3.129765567807e-10       6.977717364610e-14      -1.811375360704e-12       0.000000000000e+00       1.408244243207e-11       1.919686306171e-12      -7.829706149385e-15 
   86       3.168878619826e-10       7.178681640493e-14      -1.891235576221e-12       0.000000000000e+00       1.366839142515e-11       1.873496271920e-12      -7.732018530803e-15 
   87       3.208307779028e-10       7.380566008155e-14      -1.972107039142e-12       0.000000000000e+00       1.327024286146e-11       1.828927997449e-12      -7.637667709336e-15 
   88       3.248052447604e-10       7.583213233036e-14      -2.053938522086e-12       0.000000000000e+00       1.288758266058e-11       1.785954240909e-12      -7.547420759795e-15 
   89       3.288109479072e-10       7.786461800062e-14      -2.136677145608e-12       0.000000000000e+00       1.251979375620e-11       1.744526807216e-12      -7.462067769177e-15 
   90       3.328473059752e-10       7.990145912266e-14      -2.220268385354e-12       0.000000000000e+00       1.216604833733e-11       1.704575724110e-12      -7.382421853168e-15 
   91       3.369134590258e-10       8.194095489426e-14      -2.304656079208e-12       0.000000000000e+00       1.182530008944e-11       1.666008418220e-12      -7.309319172640e-15 
   92       3.410082566974e-10       8.398136166688e-14      -2.389782434445e-12       0.000000000000e+00       1.149627643569e-11       1.628708891123e-12      -7.243618950162e-15 
   93       3.451306073788e-10       8.602091638625e-14      -2.475588703950e-12       0.000000000000e+00       1.117777925701e-11       1.592565515351e-12      -7.185920675365e-15 
   94       3.492806115427e-10       8.805791097684e-14      -2.562017315696e-12       0.000000000000e+00       1.086965564166e-11       1.557560994153e-12      -7.135667032401e-15 
   95       3.534585777461e-10       9.009062917151e-14      -2.649010078246e-12       0.000000000000e+00       1.057195947056e-11       1.523694471265e-12      -7.091905455435e-15 
   96       3.576646699899e-10       9.211732435815e-14      -2.736507556342e-12       0.000000000000e+00       1.028465247017e-11       1.490953691205e-12      -7.053555104351e-15 
   97       3.618989008231e-10       9.413621988790e-14      -2.824449087235e-12       0.000000000000e+00       1.000760068814e-11       1.459314568196e-12      -7.019402999160e-15 
   98       3.661611244469e-10       9.614550938342e-14      -2.912772797020e-12       0.000000000000e+00       9.740570968932e-12       1.428740755089e-12      -6.988100154391e-15 
   99       3.704510298185e-10       9.814335704709e-14      -3.001415616973e-12       0.000000000000e+00       9.483227429411e-12       1.399183212284e-12      -6.958157713496e-15 
  100       3.747681337555e-10       1.001278979693e-13      -3.090313299882e-12       0.000000000000e+00       9.235127934511e-12       1.370579776653e-12      -6.927943083247e-15 
  101       3.791117740398e-10       1.020972384366e-13      -3.179400436382e-12       0.000000000000e+00       8.995720572844e-12       1.342854730462e-12      -6.895676068138e-15 
  102       3.834811025218e-10       1.040494562400e-13      -3.268610471293e-12       0.000000000000e+00       8.764340132321e-12       1.315918370293e-12      -6.859425004782e-15 
  103       3.878750782241e-10       1.059826009833e-13      -3.357875719949e-12       0.000000000000e+00       8.540204575783e-12       1.289666575969e-12      -6.817102896313e-15 
  104       3.922926893346e-10       1.078947423136e-13      -3.447127894918e-12       0.000000000000e+00       8.322591676225e-12       1.264005501201e-12      -6.766963964572e-15 
  105       3.967336681897e-10       1.097841213699e-13      -3.536299731989e-12       0.000000000000e+00       8.111403688078e-12       1.238930372587e-12      -6.709178025224e-15 
  106       4.011978604679e-10       1.116490204631e-13      -3.625323615307e-12       0.000000000000e+00       7.906672739446e-12       1.214456581116e-12      -6.644462571254e-15 
