# dimensionless [l(l+1)/2pi] C_l's for scalar dark radiation density isocurvature (DRID) mode
# for l=2 to 3000, i.e. number of multipoles equal to 2999
#
# -> if you prefer output in CAMB/HealPix/LensPix units/order, set 'format' to 'camb' in input file
# -> if you don't want to see such a header, set 'headers' to 'no' in input file
# -> for CMB lensing (phi), these are C_l^phi-phi for the lensing potential.
#    Remember the conversion factors:
#    C_l^dd (deflection) = l(l+1) C_l^phi-phi
#    C_l^gg (shear/convergence) = 1/4 (l(l+1))^2 C_l^phi-phi
#
# 1:l     2:TT                     3:EE                     4:TE                     5:BB                     6:phiphi                 7:TPhi                   8:Ephi               
    2       2.203235859701e-10       8.843480405768e-15       1.007835585022e-12       0.000000000000e+00       1.085572360818e-11       2.804334010757e-13      -7.029415389038e-16 
    3       2.171650698561e-10       1.182120269684e-14       1.017647396655e-12       0.000000000000e+00       8.490061929208e-12       2.752053919480e-13      -1.061640055517e-15 
    4       2.152746429872e-10       1.085141746826e-14       9.020278233106e-13       0.000000000000e+00       6.940051092235e-12       2.667326153368e-13      -1.129436636004e-15 
    5       2.141272043753e-10       7.748408136610e-15       7.493633054473e-13       0.000000000000e+00       5.727771047974e-12       2.538964967751e-13      -9.317153115498e-16 
    6       2.134082530765e-10       4.553773045848e-15       5.982289807709e-13       0.000000000000e+00       4.824681788656e-12       2.406403334944e-13      -5.525471603504e-16 
    7       2.129696461916e-10       2.365331469466e-15       4.677116599139e-13       0.000000000000e+00       4.195345819262e-12       2.294855858148e-13      -1.123271545444e-16 
    8       2.127229021477e-10       1.259240540584e-15       3.640516813639e-13       0.000000000000e+00       3.727628614767e-12       2.196163070637e-13       2.677933900088e-16 
    9       2.125516495935e-10       8.210163276090e-16       2.872789715683e-13       0.000000000000e+00       3.356588424949e-12       2.101025508670e-13       4.989034227373e-16 
   10       2.124447243408e-10       6.393801230826e-16       2.344357272135e-13       0.000000000000e+00       3.057579542202e-12       2.010668355484e-13       5.456522526636e-16 
   11       2.123855431164e-10       5.092544465978e-16       2.013569334122e-13       0.000000000000e+00       2.510158572487e-12       1.851516780604e-13       4.209668756213e-16 
   12       2.123409201585e-10       3.948948087483e-16       1.838253242381e-13       0.000000000000e+00       2.301082329494e-12       1.784314287061e-13       2.078232256061e-16 
   13       2.122977296659e-10       3.174964610670e-16       1.781498738975e-13       0.000000000000e+00       2.121644744199e-12       1.705003305603e-13      -2.914284788582e-17 
   14       2.122729422593e-10       2.846509141615e-16       1.813345905109e-13       0.000000000000e+00       1.965857243858e-12       1.615006452136e-13      -2.194171358960e-16 
   15       2.122493094021e-10       2.828056387606e-16       1.910237351270e-13       0.000000000000e+00       1.829255857553e-12       1.547483327438e-13      -3.170828426278e-16 
   16       2.121651585468e-10       2.969816717955e-16       2.054468835515e-13       0.000000000000e+00       1.708443223021e-12       1.483571268570e-13      -3.140808924196e-16 
   17       2.120786863240e-10       3.229087741525e-16       2.233574271459e-13       0.000000000000e+00       1.600788300136e-12       1.423907988736e-13      -2.312006488837e-16 
   18       2.119658308413e-10       3.641142441366e-16       2.437933379704e-13       0.000000000000e+00       1.503807423844e-12       1.363478139873e-13      -1.100343328472e-16 
   19       2.118583273629e-10       4.220115424910e-16       2.662084217796e-13       0.000000000000e+00       1.417087147165e-12       1.301167480896e-13       9.688766989456e-18 
   20       2.117084309161e-10       4.959503540568e-16       2.900266465467e-13       0.000000000000e+00       1.338025547719e-12       1.238646904691e-13       8.682860300329e-17 
   21       2.115388663300e-10       5.842846690859e-16       3.149725092377e-13       0.000000000000e+00       1.266029140425e-12       1.183039196031e-13       1.073799267504e-16 
   22       2.113341314287e-10       6.849573586621e-16       3.408332049361e-13       0.000000000000e+00       1.200020181397e-12       1.140648797752e-13       7.147696868641e-17 
   23       2.111151565138e-10       7.990338146738e-16       3.674735156408e-13       0.000000000000e+00       1.139556166352e-12       1.102475069792e-13      -2.727368660363e-18 
   24       2.108707545533e-10       9.284129036328e-16       3.947718904201e-13       0.000000000000e+00       1.083685733580e-12       1.055486154234e-13      -8.701631419639e-17 
   25       2.106087809474e-10       1.073524614305e-15       4.226409278405e-13       0.000000000000e+00       1.032096004088e-12       1.004795053319e-13      -1.583836078630e-16 
   26       2.103122096432e-10       1.234313846565e-15       4.510049914048e-13       0.000000000000e+00       9.841928315989e-13       9.603477845013e-14      -1.963029822328e-16 
   27       2.099863870287e-10       1.411420437776e-15       4.798213121737e-13       0.000000000000e+00       9.396674639628e-13       9.217633057282e-14      -1.983072199260e-16 
   28       2.096234595522e-10       1.605723581189e-15       5.090573845960e-13       0.000000000000e+00       8.980178040579e-13       8.853305532734e-14      -1.702974300947e-16 
   29       2.092408545122e-10       1.818277153027e-15       5.386718810079e-13       0.000000000000e+00       8.592118373632e-13       8.504832309585e-14      -1.251657790647e-16 
   30       2.088378656920e-10       2.050226406806e-15       5.686211391035e-13       0.000000000000e+00       8.230158943454e-13       8.173542679329e-14      -8.158053272306e-17 
   31       2.083922703696e-10       2.302713112006e-15       5.988643970356e-13       0.000000000000e+00       7.889124100233e-13       7.857780880498e-14      -5.872648929349e-17 
   32       2.079171674200e-10       2.576660697258e-15       6.293727055354e-13       0.000000000000e+00       7.568548298668e-13       7.553999553008e-14      -5.910098752912e-17 
   33       2.074199890331e-10       2.872903518381e-15       6.601237811486e-13       0.000000000000e+00       7.267348190376e-13       7.255440674057e-14      -7.923342485973e-17 
   34       2.068935309866e-10       3.192243808570e-15       6.910956515198e-13       0.000000000000e+00       6.982718737665e-13       6.955308015386e-14      -1.135838943481e-16 
   35       2.063455932307e-10       3.535472408345e-15       7.222514967764e-13       0.000000000000e+00       6.714134840634e-13       6.660037660096e-14      -1.531489180219e-16 
   36       2.057760741486e-10       3.903348511290e-15       7.535494818683e-13       0.000000000000e+00       6.460383631793e-13       6.380535775272e-14      -1.860786043374e-16 
   37       2.051752358831e-10       4.296634934574e-15       7.849480397535e-13       0.000000000000e+00       6.219258733989e-13       6.126324558627e-14      -2.012125861394e-16 
   38       2.045511122648e-10       4.716251014012e-15       8.164107208856e-13       0.000000000000e+00       5.990764626695e-13       5.897388812487e-14      -1.995714077447e-16 
   39       2.039086691147e-10       5.163167945872e-15       8.479028727453e-13       0.000000000000e+00       5.774744872699e-13       5.689440420839e-14      -1.866723442315e-16 
   40       2.032408955772e-10       5.638367818360e-15       8.793903396994e-13       0.000000000000e+00       5.569889253904e-13       5.495864747903e-14      -1.695870971965e-16 
   41       2.025352976729e-10       6.142814245664e-15       9.108399726715e-13       0.000000000000e+00       5.374333030724e-13       5.309476239670e-14      -1.554462640074e-16 
   42       2.017988738663e-10       6.677352870319e-15       9.422213602988e-13       0.000000000000e+00       5.187942953625e-13       5.128916484826e-14      -1.461156505985e-16 
   43       2.010392025826e-10       7.242778402748e-15       9.735056595042e-13       0.000000000000e+00       5.010597853020e-13       4.954028126502e-14      -1.419630607517e-16 
   44       2.002567374780e-10       7.839859131976e-15       1.004665166795e-12       0.000000000000e+00       4.841492099269e-13       4.784044026348e-14      -1.433036377303e-16 
   45       1.994481361271e-10       8.469332183528e-15       1.035671114058e-12       0.000000000000e+00       4.679522012577e-13       4.617983107922e-14      -1.500895784643e-16 
   46       1.986190782388e-10       9.131892482598e-15       1.066486191548e-12       0.000000000000e+00       4.524717329421e-13       4.456099478721e-14      -1.608820565633e-16 
   47       1.977740918127e-10       9.828196968643e-15       1.097069846298e-12       0.000000000000e+00       4.377140614451e-13       4.298779576429e-14      -1.735622726708e-16 
   48       1.969124046412e-10       1.055886481316e-14       1.127380232575e-12       0.000000000000e+00       4.236450227559e-13       4.146108090953e-14      -1.855867456988e-16 
   49       1.960274779645e-10       1.132447519498e-14       1.157374116368e-12       0.000000000000e+00       4.101868796892e-13       3.997842582757e-14      -1.939640845992e-16 
   50       1.951110501998e-10       1.212559233705e-14       1.187009018605e-12       0.000000000000e+00       3.972471283340e-13       3.853651356702e-14      -1.961516707091e-16 
   51       1.941676440400e-10       1.296285379002e-14       1.216250552211e-12       0.000000000000e+00       3.848214497253e-13       3.713962088676e-14      -1.930865326267e-16 
   52       1.932031910380e-10       1.383690226667e-14       1.245066911514e-12       0.000000000000e+00       3.729132536066e-13       3.579299675305e-14      -1.869370166424e-16 
   53       1.922206176220e-10       1.474835955537e-14       1.273426817181e-12       0.000000000000e+00       3.615025520774e-13       3.450030426296e-14      -1.802743661961e-16 
   54       1.912195909893e-10       1.569782557817e-14       1.301299526058e-12       0.000000000000e+00       3.505443108542e-13       3.326349071260e-14      -1.760927835587e-16 
   55       1.901984109868e-10       1.668588488793e-14       1.328655154553e-12       0.000000000000e+00       3.399857303349e-13       3.208319766650e-14      -1.770531989743e-16 
   56       1.891608182477e-10       1.771313020715e-14       1.355465720307e-12       0.000000000000e+00       3.298268931209e-13       3.096040812008e-14      -1.829486241722e-16 
   57       1.881104322562e-10       1.878014308697e-14       1.381704376527e-12       0.000000000000e+00       3.200722947459e-13       2.989498094214e-14      -1.926442778632e-16 
   58       1.870485867570e-10       1.988748634286e-14       1.407345142697e-12       0.000000000000e+00       3.107123424951e-13       2.888504020191e-14      -2.047887494135e-16 
   59       1.859741592599e-10       2.103570340253e-14       1.432362926623e-12       0.000000000000e+00       3.017224441912e-13       2.792686627645e-14      -2.178038153613e-16 
   60       1.848834005434e-10       2.222531765401e-14       1.456733546499e-12       0.000000000000e+00       2.930620969804e-13       2.701478695787e-14      -2.298742559347e-16 
   61       1.837721388063e-10       2.345678853850e-14       1.480433365522e-12       0.000000000000e+00       2.846882222749e-13       2.614278305619e-14      -2.393653940919e-16 
   62       1.826433559706e-10       2.473036978752e-14       1.503438050035e-12       0.000000000000e+00       2.766007297050e-13       2.530997269696e-14      -2.462082691259e-16 
   63       1.815010171523e-10       2.604621806376e-14       1.525723570509e-12       0.000000000000e+00       2.688056100637e-13       2.451617040335e-14      -2.508087243498e-16 
   64       1.803477528117e-10       2.740443142397e-14       1.547266573938e-12       0.000000000000e+00       2.613011415294e-13       2.376022781358e-14      -2.536504412149e-16 
   65       1.791847636038e-10       2.880504729449e-14       1.568044393610e-12       0.000000000000e+00       2.540774304709e-13       2.303997918778e-14      -2.552983271400e-16 
   66       1.780117252276e-10       3.024804044682e-14       1.588035058859e-12       0.000000000000e+00       2.471159522538e-13       2.235218691503e-14      -2.564019033408e-16 
   67       1.768266932765e-10       3.173332097315e-14       1.607217304836e-12       0.000000000000e+00       2.403890920457e-13       2.169248702023e-14      -2.576986926590e-16 
   68       1.756275397867e-10       3.326079294286e-14       1.625570115792e-12       0.000000000000e+00       2.338687285978e-13       2.105654609579e-14      -2.598439595278e-16 
   69       1.744168135834e-10       3.483054869869e-14       1.643071225680e-12       0.000000000000e+00       2.275550317379e-13       2.044392612384e-14      -2.628522958880e-16 
   70       1.731976983619e-10       3.644271047419e-14       1.659698329880e-12       0.000000000000e+00       2.214527019011e-13       1.985490847315e-14      -2.665484520433e-16 
   71       1.719725131542e-10       3.809737273207e-14       1.675429522655e-12       0.000000000000e+00       2.155622196141e-13       1.928932867530e-14      -2.707299387068e-16 
   72       1.707426563525e-10       3.979460169177e-14       1.690243294984e-12       0.000000000000e+00       2.098796175787e-13       1.874655291430e-14      -2.751659737093e-16 
   73       1.695085497332e-10       4.153443485689e-14       1.704118532394e-12       0.000000000000e+00       2.043962527557e-13       1.822545451630e-14      -2.795964287058e-16 
   74       1.682695824808e-10       4.331688054273e-14       1.717034512792e-12       0.000000000000e+00       1.990985784488e-13       1.772439043924e-14      -2.837307758839e-16 
   75       1.670240552115e-10       4.514191740372e-14       1.728970904296e-12       0.000000000000e+00       1.939679163886e-13       1.724117776256e-14      -2.872470346704e-16 
   76       1.657702670981e-10       4.700946377053e-14       1.739908367087e-12       0.000000000000e+00       1.889857498976e-13       1.677372400296e-14      -2.898750908089e-16 
   77       1.645101298500e-10       4.891928025043e-14       1.749830490477e-12       0.000000000000e+00       1.841512215536e-13       1.632210273014e-14      -2.916665227801e-16 
   78       1.632461141240e-10       5.087104842464e-14       1.758722206774e-12       0.000000000000e+00       1.794664270563e-13       1.588681549461e-14      -2.927722945133e-16 
   79       1.619801328790e-10       5.286439838915e-14       1.766569228653e-12       0.000000000000e+00       1.749310643665e-13       1.546816164001e-14      -2.933634139927e-16 
   80       1.607135088397e-10       5.489890766315e-14       1.773358059372e-12       0.000000000000e+00       1.705423190042e-13       1.506622820002e-14      -2.936316100890e-16 
   81       1.594469419610e-10       5.697410009740e-14       1.779076002991e-12       0.000000000000e+00       1.662947493464e-13       1.468087979525e-14      -2.937900093900e-16 
   82       1.581804768916e-10       5.908944478269e-14       1.783711174586e-12       0.000000000000e+00       1.621801719257e-13       1.431174853018e-14      -2.940738130323e-16 
   83       1.569134704382e-10       6.124435495824e-14       1.787252510471e-12       0.000000000000e+00       1.581875467278e-13       1.395822389004e-14      -2.947409735324e-16 
   84       1.556452767795e-10       6.343821807170e-14       1.789689705065e-12       0.000000000000e+00       1.543060452463e-13       1.361961847232e-14      -2.960143388605e-16 
   85       1.543775048939e-10       6.567049407623e-14       1.791012987102e-12       0.000000000000e+00       1.505350902889e-13       1.329571887960e-14      -2.978955819035e-16 
   86       1.531120774522e-10       6.794063150341e-14       1.791213324881e-12       0.000000000000e+00       1.468757779963e-13       1.298630805419e-14      -3.003215219641e-16 
   87       1.518505261703e-10       7.024803720078e-14       1.790282505170e-12       0.000000000000e+00       1.433277827614e-13       1.269099052100e-14      -3.032196125186e-16 
   88       1.505939713364e-10       7.259207576386e-14       1.788213142189e-12       0.000000000000e+00       1.398892960188e-13       1.240918523958e-14      -3.065076343040e-16 
   89       1.493431013379e-10       7.497206896804e-14       1.784998686598e-12       0.000000000000e+00       1.365569650348e-13       1.214011845632e-14      -3.100933884059e-16 
   90       1.480981521884e-10       7.738729520065e-14       1.780633434477e-12       0.000000000000e+00       1.333258316968e-13       1.188281655651e-14      -3.138743893453e-16 
   91       1.468588870549e-10       7.983698889282e-14       1.775112536313e-12       0.000000000000e+00       1.301892713036e-13       1.163609891646e-14      -3.177375581664e-16 
   92       1.456245757850e-10       8.232033995152e-14       1.768432005987e-12       0.000000000000e+00       1.271389313546e-13       1.139857075561e-14      -3.215589155241e-16 
   93       1.443945843148e-10       8.483650308345e-14       1.760588460351e-12       0.000000000000e+00       1.241669395727e-13       1.116896536842e-14      -3.252278534057e-16 
   94       1.431702887665e-10       8.738462860469e-14       1.751578273649e-12       0.000000000000e+00       1.212730407972e-13       1.094724522405e-14      -3.287247927053e-16 
   95       1.419534127186e-10       8.996383523616e-14       1.741398311942e-12       0.000000000000e+00       1.184584253027e-13       1.073365402701e-14      -3.320546922500e-16 
   96       1.407454310361e-10       9.257320019807e-14       1.730046196397e-12       0.000000000000e+00       1.157235255499e-13       1.052837977264e-14      -3.352235409156e-16 
   97       1.395475577693e-10       9.521175877769e-14       1.717520308576e-12       0.000000000000e+00       1.130679861245e-13       1.033155239512e-14      -3.382383881009e-16 
   98       1.383607340527e-10       9.787850389713e-14       1.703819795719e-12       0.000000000000e+00       1.104906336768e-13       1.014324141546e-14      -3.411073742018e-16 
   99       1.371856160035e-10       1.005723856810e-13       1.688944576034e-12       0.000000000000e+00       1.079894468606e-13       9.963453589480e-15      -3.438397610861e-16 
  100       1.360225626210e-10       1.032923110244e-13       1.672895343981e-12       0.000000000000e+00       1.055615262723e-13       9.792130555831e-15      -3.464459625671e-16 
  101       1.348716236846e-10       1.060371431603e-13       1.655673575561e-12       0.000000000000e+00       1.032030643902e-13       9.629146483950e-15      -3.489375748785e-16 
  102       1.337325276533e-10       1.088057012275e-13       1.637281533603e-12       0.000000000000e+00       1.009093155135e-13       9.474305722066e-15      -3.513274071481e-16 
  103       1.326046695639e-10       1.115967598386e-13       1.617722273048e-12       0.000000000000e+00       9.867456570195e-14       9.327340445190e-15      -3.536295118726e-16 
  104       1.314875595663e-10       1.144090737315e-13       1.596999687417e-12       0.000000000000e+00       9.649354451460e-14       9.187966244401e-15      -3.558566475797e-16 
  105       1.303822635956e-10       1.172414564498e-13       1.575118643962e-12       0.000000000000e+00       9.436594216538e-14       9.056062512758e-15      -3.580122108180e-16 
  106       1.292901356599e-10       1.200927115346e-13       1.552084876716e-12       0.000000000000e+00       9.229244936834e-14       8.931512155516e-15      -3.600972660358e-16 
